#omega	spectral weight
-5.000000e+00	3.777241e-04
-4.975000e+00	3.816699e-04
-4.950000e+00	3.856953e-04
-4.925000e+00	3.898025e-04
-4.900000e+00	3.939939e-04
-4.875000e+00	3.982723e-04
-4.850000e+00	4.026400e-04
-4.825000e+00	4.071000e-04
-4.800000e+00	4.116550e-04
-4.775000e+00	4.163081e-04
-4.750000e+00	4.210622e-04
-4.725000e+00	4.259206e-04
-4.700000e+00	4.308866e-04
-4.675000e+00	4.359637e-04
-4.650000e+00	4.411555e-04
-4.625000e+00	4.464657e-04
-4.600000e+00	4.518984e-04
-4.575000e+00	4.574575e-04
-4.550000e+00	4.631474e-04
-4.525000e+00	4.689725e-04
-4.500000e+00	4.749374e-04
-4.475000e+00	4.810471e-04
-4.450000e+00	4.873066e-04
-4.425000e+00	4.937211e-04
-4.400000e+00	5.002964e-04
-4.375000e+00	5.070380e-04
-4.350000e+00	5.139522e-04
-4.325000e+00	5.210452e-04
-4.300000e+00	5.283238e-04
-4.275000e+00	5.357949e-04
-4.250000e+00	5.434658e-04
-4.225000e+00	5.513442e-04
-4.200000e+00	5.594381e-04
-4.175000e+00	5.677560e-04
-4.150000e+00	5.763067e-04
-4.125000e+00	5.850996e-04
-4.100000e+00	5.941444e-04
-4.075000e+00	6.034516e-04
-4.050000e+00	6.130319e-04
-4.025000e+00	6.228967e-04
-4.000000e+00	6.330582e-04
-3.975000e+00	6.435289e-04
-3.950000e+00	6.543223e-04
-3.925000e+00	6.654525e-04
-3.900000e+00	6.769345e-04
-3.875000e+00	6.887839e-04
-3.850000e+00	7.010176e-04
-3.825000e+00	7.136531e-04
-3.800000e+00	7.267090e-04
-3.775000e+00	7.402053e-04
-3.750000e+00	7.541629e-04
-3.725000e+00	7.686040e-04
-3.700000e+00	7.835523e-04
-3.675000e+00	7.990329e-04
-3.650000e+00	8.150725e-04
-3.625000e+00	8.316995e-04
-3.600000e+00	8.489442e-04
-3.575000e+00	8.668389e-04
-3.550000e+00	8.854179e-04
-3.525000e+00	9.047180e-04
-3.500000e+00	9.247784e-04
-3.475000e+00	9.456412e-04
-3.450000e+00	9.673513e-04
-3.425000e+00	9.899569e-04
-3.400000e+00	1.013510e-03
-3.375000e+00	1.038065e-03
-3.350000e+00	1.063682e-03
-3.325000e+00	1.090426e-03
-3.300000e+00	1.118366e-03
-3.275000e+00	1.147575e-03
-3.250000e+00	1.178135e-03
-3.225000e+00	1.210132e-03
-3.200000e+00	1.243660e-03
-3.175000e+00	1.278822e-03
-3.150000e+00	1.315728e-03
-3.125000e+00	1.354498e-03
-3.100000e+00	1.395263e-03
-3.075000e+00	1.438165e-03
-3.050000e+00	1.483360e-03
-3.025000e+00	1.531018e-03
-3.000000e+00	1.581325e-03
-2.975000e+00	1.634484e-03
-2.950000e+00	1.690720e-03
-2.925000e+00	1.750280e-03
-2.900000e+00	1.813434e-03
-2.875000e+00	1.880482e-03
-2.850000e+00	1.951758e-03
-2.825000e+00	2.027629e-03
-2.800000e+00	2.108505e-03
-2.775000e+00	2.194840e-03
-2.750000e+00	2.287146e-03
-2.725000e+00	2.385990e-03
-2.700000e+00	2.492013e-03
-2.675000e+00	2.605935e-03
-2.650000e+00	2.728566e-03
-2.625000e+00	2.860825e-03
-2.600000e+00	3.003755e-03
-2.575000e+00	3.158544e-03
-2.550000e+00	3.326549e-03
-2.525000e+00	3.509324e-03
-2.500000e+00	3.708663e-03
-2.475000e+00	3.926635e-03
-2.450000e+00	4.165641e-03
-2.425000e+00	4.428484e-03
-2.400000e+00	4.718441e-03
-2.375000e+00	5.039374e-03
-2.350000e+00	5.395850e-03
-2.325000e+00	5.793304e-03
-2.300000e+00	6.238239e-03
-2.275000e+00	6.738494e-03
-2.250000e+00	7.303572e-03
-2.225000e+00	7.945085e-03
-2.200000e+00	8.677328e-03
-2.175000e+00	9.518052e-03
-2.150000e+00	1.048949e-02
-2.125000e+00	1.161977e-02
-2.100000e+00	1.294482e-02
-2.075000e+00	1.451109e-02
-2.050000e+00	1.637930e-02
-2.025000e+00	1.862984e-02
-2.000000e+00	2.137060e-02
-1.975000e+00	2.474835e-02
-1.950000e+00	2.896557e-02
-1.925000e+00	3.430536e-02
-1.900000e+00	4.116797e-02
-1.875000e+00	5.012274e-02
-1.850000e+00	6.197544e-02
-1.825000e+00	7.783263e-02
-1.800000e+00	9.908176e-02
-1.775000e+00	1.270264e-01
-1.750000e+00	1.615557e-01
-1.725000e+00	1.981365e-01
-1.700000e+00	2.249510e-01
-1.675000e+00	2.280138e-01
-1.650000e+00	2.054284e-01
-1.625000e+00	1.697461e-01
-1.600000e+00	1.341583e-01
-1.575000e+00	1.046735e-01
-1.550000e+00	8.205763e-02
-1.525000e+00	6.515325e-02
-1.500000e+00	5.253908e-02
-1.475000e+00	4.303902e-02
-1.450000e+00	3.578576e-02
-1.425000e+00	3.016421e-02
-1.400000e+00	2.574202e-02
-1.375000e+00	2.221400e-02
-1.350000e+00	1.936249e-02
-1.325000e+00	1.703021e-02
-1.300000e+00	1.510191e-02
-1.275000e+00	1.349203e-02
-1.250000e+00	1.213612e-02
-1.225000e+00	1.098511e-02
-1.200000e+00	1.000111e-02
-1.175000e+00	9.154610e-03
-1.150000e+00	8.422388e-03
-1.125000e+00	7.785996e-03
-1.100000e+00	7.230680e-03
-1.075000e+00	6.744564e-03
-1.050000e+00	6.318051e-03
-1.025000e+00	5.943365e-03
-1.000000e+00	5.614220e-03
-9.750000e-01	5.325571e-03
-9.500000e-01	5.073430e-03
-9.250000e-01	4.854757e-03
-9.000000e-01	4.667392e-03
-8.750000e-01	4.510051e-03
-8.500000e-01	4.382391e-03
-8.250000e-01	4.285151e-03
-8.000000e-01	4.220410e-03
-7.750000e-01	4.191998e-03
-7.500000e-01	4.206103e-03
-7.250000e-01	4.272072e-03
-7.000000e-01	4.403214e-03
-6.750000e-01	4.616656e-03
-6.500000e-01	4.929276e-03
-6.250000e-01	5.342663e-03
-6.000000e-01	5.809377e-03
-5.750000e-01	6.202605e-03
-5.500000e-01	6.378339e-03
-5.250000e-01	6.336693e-03
-5.000000e-01	6.243185e-03
-4.750000e-01	6.273188e-03
-4.500000e-01	6.524316e-03
-4.250000e-01	7.021866e-03
-4.000000e-01	7.708740e-03
-3.750000e-01	8.401115e-03
-3.500000e-01	8.835805e-03
-3.250000e-01	8.914363e-03
-3.000000e-01	8.825561e-03
-2.750000e-01	8.788193e-03
-2.500000e-01	8.798930e-03
-2.250000e-01	8.680627e-03
-2.000000e-01	8.355442e-03
-1.750000e-01	7.982114e-03
-1.500000e-01	7.779340e-03
-1.250000e-01	7.854680e-03
-1.000000e-01	8.168622e-03
-7.500000e-02	8.530142e-03
-5.000000e-02	8.676474e-03
-2.500000e-02	8.518780e-03
7.105427e-14	8.255214e-03
2.500000e-02	8.160370e-03
5.000000e-02	8.405383e-03
7.500000e-02	9.046933e-03
1.000000e-01	1.001966e-02
1.250000e-01	1.105071e-02
1.500000e-01	1.164360e-02
1.750000e-01	1.142396e-02
2.000000e-01	1.056420e-02
2.250000e-01	9.568692e-03
2.500000e-01	8.790324e-03
2.750000e-01	8.311024e-03
3.000000e-01	8.063692e-03
3.250000e-01	7.958625e-03
3.500000e-01	7.902469e-03
3.750000e-01	7.784044e-03
4.000000e-01	7.581022e-03
4.250000e-01	7.423460e-03
4.500000e-01	7.479373e-03
4.750000e-01	7.862797e-03
5.000000e-01	8.635023e-03
5.250000e-01	9.795760e-03
5.500000e-01	1.119168e-02
5.750000e-01	1.238172e-02
6.000000e-01	1.274723e-02
6.250000e-01	1.205565e-02
6.500000e-01	1.074289e-02
6.750000e-01	9.408296e-03
7.000000e-01	8.379112e-03
7.250000e-01	7.735652e-03
7.500000e-01	7.447828e-03
7.750000e-01	7.422405e-03
8.000000e-01	7.492737e-03
8.250000e-01	7.473655e-03
8.500000e-01	7.323542e-03
8.750000e-01	7.188786e-03
9.000000e-01	7.252262e-03
9.250000e-01	7.631819e-03
9.500000e-01	8.381627e-03
9.750000e-01	9.477057e-03
1.000000e+00	1.071875e-02
1.025000e+00	1.164074e-02
1.050000e+00	1.173039e-02
1.075000e+00	1.095303e-02
1.100000e+00	9.778321e-03
1.125000e+00	8.658032e-03
1.150000e+00	7.789060e-03
1.175000e+00	7.215801e-03
1.200000e+00	6.917474e-03
1.225000e+00	6.807324e-03
1.250000e+00	6.743094e-03
1.275000e+00	6.629297e-03
1.300000e+00	6.518624e-03
1.325000e+00	6.549008e-03
1.350000e+00	6.828640e-03
1.375000e+00	7.398077e-03
1.400000e+00	8.208357e-03
1.425000e+00	9.075659e-03
1.450000e+00	9.718063e-03
1.475000e+00	9.944265e-03
1.500000e+00	9.726738e-03
1.525000e+00	9.115339e-03
1.550000e+00	8.266255e-03
1.575000e+00	7.394954e-03
1.600000e+00	6.635992e-03
1.625000e+00	6.021031e-03
1.650000e+00	5.543940e-03
1.675000e+00	5.203324e-03
1.700000e+00	4.996563e-03
1.725000e+00	4.925510e-03
1.750000e+00	5.010157e-03
1.775000e+00	5.278158e-03
1.800000e+00	5.744425e-03
1.825000e+00	6.387518e-03
1.850000e+00	7.124019e-03
1.875000e+00	7.800397e-03
1.900000e+00	8.208799e-03
1.925000e+00	8.173812e-03
1.950000e+00	7.691637e-03
1.975000e+00	6.929812e-03
2.000000e+00	6.112590e-03
2.025000e+00	5.407893e-03
2.050000e+00	4.885220e-03
2.075000e+00	4.548124e-03
2.100000e+00	4.373059e-03
2.125000e+00	4.323262e-03
2.150000e+00	4.357701e-03
2.175000e+00	4.459145e-03
2.200000e+00	4.653909e-03
2.225000e+00	4.982246e-03
2.250000e+00	5.449803e-03
2.275000e+00	5.990273e-03
2.300000e+00	6.461629e-03
2.325000e+00	6.737537e-03
2.350000e+00	6.803456e-03
2.375000e+00	6.675152e-03
2.400000e+00	6.331531e-03
2.425000e+00	5.821234e-03
2.450000e+00	5.290231e-03
2.475000e+00	4.860670e-03
2.500000e+00	4.571434e-03
2.525000e+00	4.402421e-03
2.550000e+00	4.311864e-03
2.575000e+00	4.279952e-03
2.600000e+00	4.327017e-03
2.625000e+00	4.483580e-03
2.650000e+00	4.765142e-03
2.675000e+00	5.165643e-03
2.700000e+00	5.626197e-03
2.725000e+00	6.000483e-03
2.750000e+00	6.127223e-03
2.775000e+00	5.984507e-03
2.800000e+00	5.684521e-03
2.825000e+00	5.321411e-03
2.850000e+00	4.942034e-03
2.875000e+00	4.605967e-03
2.900000e+00	4.372541e-03
2.925000e+00	4.265069e-03
2.950000e+00	4.267557e-03
2.975000e+00	4.336520e-03
3.000000e+00	4.427118e-03
3.025000e+00	4.519913e-03
3.050000e+00	4.606403e-03
3.075000e+00	4.677880e-03
3.100000e+00	4.751468e-03
3.125000e+00	4.846309e-03
3.150000e+00	4.922097e-03
3.175000e+00	4.884003e-03
3.200000e+00	4.684535e-03
3.225000e+00	4.393549e-03
3.250000e+00	4.121517e-03
3.275000e+00	3.933864e-03
3.300000e+00	3.847855e-03
3.325000e+00	3.857748e-03
3.350000e+00	3.951011e-03
3.375000e+00	4.108140e-03
3.400000e+00	4.289521e-03
3.425000e+00	4.440433e-03
3.450000e+00	4.522810e-03
3.475000e+00	4.534463e-03
3.500000e+00	4.501066e-03
3.525000e+00	4.441920e-03
3.550000e+00	4.357271e-03
3.575000e+00	4.253086e-03
3.600000e+00	4.146325e-03
3.625000e+00	4.059394e-03
3.650000e+00	4.014640e-03
3.675000e+00	4.024325e-03
3.700000e+00	4.088178e-03
3.725000e+00	4.195373e-03
3.750000e+00	4.325047e-03
3.775000e+00	4.457719e-03
3.800000e+00	4.599322e-03
3.825000e+00	4.769317e-03
3.850000e+00	4.953868e-03
3.875000e+00	5.097678e-03
3.900000e+00	5.164758e-03
3.925000e+00	5.184583e-03
3.950000e+00	5.212692e-03
3.975000e+00	5.283566e-03
4.000000e+00	5.398379e-03
4.025000e+00	5.532355e-03
4.050000e+00	5.664860e-03
4.075000e+00	5.797343e-03
4.100000e+00	5.935329e-03
4.125000e+00	6.079730e-03
4.150000e+00	6.243646e-03
4.175000e+00	6.456798e-03
4.200000e+00	6.743315e-03
4.225000e+00	7.116188e-03
4.250000e+00	7.584884e-03
4.275000e+00	8.127807e-03
4.300000e+00	8.663272e-03
4.325000e+00	9.103323e-03
4.350000e+00	9.440236e-03
4.375000e+00	9.727552e-03
4.400000e+00	1.003246e-02
4.425000e+00	1.043347e-02
4.450000e+00	1.098192e-02
4.475000e+00	1.166165e-02
4.500000e+00	1.240653e-02
4.525000e+00	1.313170e-02
4.550000e+00	1.376099e-02
4.575000e+00	1.429144e-02
4.600000e+00	1.483095e-02
4.625000e+00	1.551493e-02
4.650000e+00	1.643271e-02
4.675000e+00	1.763273e-02
4.700000e+00	1.908511e-02
4.725000e+00	2.066966e-02
4.750000e+00	2.230977e-02
4.775000e+00	2.401404e-02
4.800000e+00	2.575406e-02
4.825000e+00	2.755252e-02
4.850000e+00	2.963450e-02
4.875000e+00	3.222673e-02
4.900000e+00	3.527584e-02
4.925000e+00	3.847945e-02
4.950000e+00	4.145962e-02
4.975000e+00	4.388303e-02
5.000000e+00	4.582505e-02
5.025000e+00	4.789410e-02
5.050000e+00	5.065994e-02
5.075000e+00	5.440114e-02
5.100000e+00	5.930054e-02
5.125000e+00	6.540320e-02
5.150000e+00	7.250024e-02
5.175000e+00	8.007845e-02
5.200000e+00	8.719897e-02
5.225000e+00	9.307149e-02
5.250000e+00	9.801614e-02
5.275000e+00	1.029560e-01
5.300000e+00	1.078860e-01
5.325000e+00	1.116241e-01
5.350000e+00	1.131165e-01
5.375000e+00	1.122006e-01
5.400000e+00	1.099226e-01
5.425000e+00	1.082885e-01
5.450000e+00	1.087871e-01
5.475000e+00	1.117191e-01
5.500000e+00	1.165395e-01
5.525000e+00	1.219235e-01
5.550000e+00	1.257077e-01
5.575000e+00	1.259189e-01
5.600000e+00	1.226679e-01
5.625000e+00	1.180202e-01
5.650000e+00	1.137280e-01
5.675000e+00	1.102362e-01
5.700000e+00	1.073944e-01
5.725000e+00	1.047513e-01
5.750000e+00	1.016708e-01
5.775000e+00	9.803437e-02
5.800000e+00	9.466463e-02
5.825000e+00	9.285292e-02
5.850000e+00	9.321212e-02
5.875000e+00	9.508814e-02
5.900000e+00	9.715816e-02
5.925000e+00	9.851543e-02
5.950000e+00	9.905386e-02
5.975000e+00	9.900178e-02
6.000000e+00	9.829642e-02
6.025000e+00	9.634359e-02
6.050000e+00	9.283906e-02
6.075000e+00	8.868962e-02
6.100000e+00	8.514845e-02
6.125000e+00	8.256955e-02
6.150000e+00	8.060234e-02
6.175000e+00	7.905610e-02
6.200000e+00	7.799262e-02
6.225000e+00	7.757704e-02
6.250000e+00	7.821169e-02
6.275000e+00	8.012168e-02
6.300000e+00	8.272795e-02
6.325000e+00	8.485258e-02
6.350000e+00	8.580631e-02
6.375000e+00	8.572039e-02
6.400000e+00	8.474209e-02
6.425000e+00	8.287861e-02
6.450000e+00	8.027804e-02
6.475000e+00	7.720105e-02
6.500000e+00	7.419510e-02
6.525000e+00	7.187354e-02
6.550000e+00	7.032806e-02
6.575000e+00	6.939522e-02
6.600000e+00	6.916163e-02
6.625000e+00	6.958899e-02
6.650000e+00	7.037900e-02
6.675000e+00	7.160850e-02
6.700000e+00	7.350859e-02
6.725000e+00	7.546460e-02
6.750000e+00	7.632859e-02
6.775000e+00	7.588730e-02
6.800000e+00	7.491092e-02
6.825000e+00	7.388520e-02
6.850000e+00	7.278856e-02
6.875000e+00	7.154319e-02
6.900000e+00	6.988232e-02
6.925000e+00	6.767127e-02
6.950000e+00	6.543667e-02
6.975000e+00	6.374508e-02
7.000000e+00	6.267902e-02
7.025000e+00	6.223633e-02
7.050000e+00	6.252254e-02
7.075000e+00	6.352612e-02
7.100000e+00	6.517985e-02
7.125000e+00	6.726513e-02
7.150000e+00	6.904199e-02
7.175000e+00	6.971534e-02
7.200000e+00	6.930359e-02
7.225000e+00	6.840059e-02
7.250000e+00	6.726216e-02
7.275000e+00	6.573543e-02
7.300000e+00	6.391253e-02
7.325000e+00	6.200023e-02
7.350000e+00	5.993275e-02
7.375000e+00	5.783474e-02
7.400000e+00	5.609754e-02
7.425000e+00	5.496319e-02
7.450000e+00	5.457325e-02
7.475000e+00	5.494934e-02
7.500000e+00	5.587696e-02
7.525000e+00	5.701979e-02
7.550000e+00	5.782673e-02
7.575000e+00	5.749416e-02
7.600000e+00	5.550920e-02
7.625000e+00	5.217276e-02
7.650000e+00	4.836568e-02
7.675000e+00	4.485000e-02
7.700000e+00	4.202786e-02
7.725000e+00	3.998745e-02
7.750000e+00	3.855231e-02
7.775000e+00	3.748001e-02
7.800000e+00	3.670629e-02
7.825000e+00	3.631941e-02
7.850000e+00	3.637783e-02
7.875000e+00	3.692593e-02
7.900000e+00	3.803024e-02
7.925000e+00	3.973770e-02
7.950000e+00	4.204101e-02
7.975000e+00	4.462908e-02
8.000000e+00	4.666377e-02
8.025000e+00	4.730604e-02
8.050000e+00	4.656245e-02
8.075000e+00	4.506221e-02
8.100000e+00	4.321452e-02
8.125000e+00	4.120423e-02
8.150000e+00	3.929646e-02
8.175000e+00	3.772215e-02
8.200000e+00	3.664537e-02
8.225000e+00	3.617551e-02
8.250000e+00	3.621280e-02
8.275000e+00	3.658881e-02
8.300000e+00	3.742963e-02
8.325000e+00	3.898847e-02
8.350000e+00	4.115683e-02
8.375000e+00	4.333310e-02
8.400000e+00	4.471940e-02
8.425000e+00	4.487301e-02
8.450000e+00	4.388621e-02
8.475000e+00	4.218429e-02
8.500000e+00	4.031363e-02
8.525000e+00	3.856516e-02
8.550000e+00	3.699363e-02
8.575000e+00	3.579214e-02
8.600000e+00	3.522113e-02
8.625000e+00	3.528798e-02
8.650000e+00	3.580720e-02
8.675000e+00	3.673693e-02
8.700000e+00	3.822826e-02
8.725000e+00	4.032479e-02
8.750000e+00	4.267328e-02
8.775000e+00	4.454298e-02
8.800000e+00	4.527705e-02
8.825000e+00	4.469262e-02
8.850000e+00	4.323223e-02
8.875000e+00	4.162339e-02
8.900000e+00	4.023836e-02
8.925000e+00	3.913736e-02
8.950000e+00	3.851122e-02
8.975000e+00	3.863888e-02
9.000000e+00	3.959395e-02
9.025000e+00	4.120727e-02
9.050000e+00	4.318946e-02
9.075000e+00	4.529817e-02
9.100000e+00	4.740081e-02
9.125000e+00	4.935699e-02
9.150000e+00	5.101204e-02
9.175000e+00	5.215942e-02
9.200000e+00	5.264401e-02
9.225000e+00	5.265809e-02
9.250000e+00	5.250801e-02
9.275000e+00	5.244803e-02
9.300000e+00	5.286656e-02
9.325000e+00	5.410794e-02
9.350000e+00	5.631365e-02
9.375000e+00	5.961237e-02
9.400000e+00	6.409503e-02
9.425000e+00	6.955064e-02
9.450000e+00	7.539197e-02
9.475000e+00	8.093900e-02
9.500000e+00	8.584954e-02
9.525000e+00	9.016353e-02
9.550000e+00	9.436297e-02
9.575000e+00	9.945970e-02
9.600000e+00	1.063630e-01
9.625000e+00	1.154403e-01
9.650000e+00	1.267758e-01
9.675000e+00	1.405316e-01
9.700000e+00	1.572913e-01
9.725000e+00	1.779333e-01
9.750000e+00	2.031764e-01
9.775000e+00	2.339074e-01
9.800000e+00	2.712613e-01
9.825000e+00	3.151232e-01
9.850000e+00	3.634879e-01
9.875000e+00	4.148363e-01
9.900000e+00	4.703243e-01
9.925000e+00	5.302282e-01
9.950000e+00	5.869295e-01
9.975000e+00	6.227727e-01
1.000000e+01	6.215125e-01
1.002500e+01	5.852668e-01
1.005000e+01	5.309857e-01
1.007500e+01	4.735244e-01
1.010000e+01	4.181003e-01
1.012500e+01	3.643074e-01
1.015000e+01	3.129428e-01
1.017500e+01	2.664013e-01
1.020000e+01	2.259030e-01
1.022500e+01	1.917755e-01
1.025000e+01	1.642339e-01
1.027500e+01	1.430558e-01
1.030000e+01	1.272577e-01
1.032500e+01	1.151592e-01
1.035000e+01	1.049553e-01
1.037500e+01	9.552167e-02
1.040000e+01	8.678723e-02
1.042500e+01	7.929034e-02
1.045000e+01	7.336921e-02
1.047500e+01	6.879490e-02
1.050000e+01	6.483763e-02
1.052500e+01	6.070425e-02
1.055000e+01	5.620540e-02
1.057500e+01	5.178342e-02
1.060000e+01	4.783587e-02
1.062500e+01	4.439436e-02
1.065000e+01	4.142230e-02
1.067500e+01	3.902629e-02
1.070000e+01	3.726590e-02
1.072500e+01	3.602785e-02
1.075000e+01	3.513957e-02
1.077500e+01	3.440157e-02
1.080000e+01	3.356238e-02
1.082500e+01	3.250231e-02
1.085000e+01	3.133630e-02
1.087500e+01	3.025030e-02
1.090000e+01	2.937211e-02
1.092500e+01	2.869932e-02
1.095000e+01	2.805142e-02
1.097500e+01	2.724468e-02
1.100000e+01	2.626565e-02
1.102500e+01	2.515411e-02
1.105000e+01	2.398758e-02
1.107500e+01	2.298384e-02
1.110000e+01	2.237917e-02
1.112500e+01	2.224452e-02
1.115000e+01	2.243192e-02
1.117500e+01	2.260325e-02
1.120000e+01	2.242007e-02
1.122500e+01	2.188638e-02
1.125000e+01	2.135770e-02
1.127500e+01	2.114535e-02
1.130000e+01	2.124303e-02
1.132500e+01	2.134855e-02
1.135000e+01	2.113199e-02
1.137500e+01	2.058402e-02
1.140000e+01	2.002428e-02
1.142500e+01	1.973495e-02
1.145000e+01	1.970288e-02
1.147500e+01	1.967547e-02
1.150000e+01	1.942767e-02
1.152500e+01	1.898542e-02
1.155000e+01	1.860633e-02
1.157500e+01	1.856773e-02
1.160000e+01	1.895894e-02
1.162500e+01	1.957766e-02
1.165000e+01	1.995949e-02
1.167500e+01	1.973046e-02
1.170000e+01	1.903353e-02
1.172500e+01	1.833921e-02
1.175000e+01	1.794572e-02
1.177500e+01	1.778247e-02
1.180000e+01	1.749461e-02
1.182500e+01	1.677257e-02
1.185000e+01	1.568668e-02
1.187500e+01	1.454945e-02
1.190000e+01	1.358623e-02
1.192500e+01	1.286065e-02
1.195000e+01	1.235179e-02
1.197500e+01	1.201739e-02
1.200000e+01	1.181880e-02
1.202500e+01	1.172665e-02
1.205000e+01	1.172011e-02
1.207500e+01	1.178489e-02
1.210000e+01	1.191145e-02
1.212500e+01	1.209363e-02
1.215000e+01	1.232777e-02
1.217500e+01	1.261205e-02
1.220000e+01	1.294615e-02
1.222500e+01	1.333095e-02
1.225000e+01	1.376840e-02
1.227500e+01	1.426145e-02
1.230000e+01	1.481403e-02
1.232500e+01	1.543111e-02
1.235000e+01	1.611874e-02
1.237500e+01	1.688423e-02
1.240000e+01	1.773625e-02
1.242500e+01	1.868513e-02
1.245000e+01	1.974313e-02
1.247500e+01	2.092479e-02
1.250000e+01	2.224742e-02
1.252500e+01	2.373171e-02
1.255000e+01	2.540248e-02
1.257500e+01	2.728969e-02
1.260000e+01	2.942971e-02
1.262500e+01	3.186697e-02
1.265000e+01	3.465614e-02
1.267500e+01	3.786510e-02
1.270000e+01	4.157877e-02
1.272500e+01	4.590440e-02
1.275000e+01	5.097891e-02
1.277500e+01	5.697885e-02
1.280000e+01	6.413468e-02
1.282500e+01	7.275089e-02
1.285000e+01	8.323518e-02
1.287500e+01	9.614094e-02
1.290000e+01	1.122299e-01
1.292500e+01	1.325646e-01
1.295000e+01	1.586452e-01
1.297500e+01	1.926043e-01
1.300000e+01	2.374668e-01
1.302500e+01	2.974193e-01
1.305000e+01	3.778330e-01
1.307500e+01	4.841714e-01
1.310000e+01	6.175904e-01
1.312500e+01	7.641135e-01
1.315000e+01	8.815847e-01
1.317500e+01	9.121839e-01
1.320000e+01	8.370872e-01
1.322500e+01	6.996535e-01
1.325000e+01	5.555484e-01
1.327500e+01	4.335583e-01
1.330000e+01	3.391878e-01
1.332500e+01	2.684843e-01
1.335000e+01	2.157501e-01
1.337500e+01	1.761001e-01
1.340000e+01	1.458885e-01
1.342500e+01	1.225197e-01
1.345000e+01	1.041688e-01
1.347500e+01	8.954915e-02
1.350000e+01	7.774473e-02
1.352500e+01	6.809520e-02
1.355000e+01	6.011777e-02
1.357500e+01	5.345459e-02
1.360000e+01	4.783674e-02
1.362500e+01	4.305956e-02
1.365000e+01	3.896537e-02
1.367500e+01	3.543130e-02
1.370000e+01	3.236059e-02
1.372500e+01	2.967628e-02
1.375000e+01	2.731659e-02
1.377500e+01	2.523152e-02
1.380000e+01	2.338023e-02
1.382500e+01	2.172918e-02
1.385000e+01	2.025058e-02
1.387500e+01	1.892127e-02
1.390000e+01	1.772183e-02
1.392500e+01	1.663589e-02
1.395000e+01	1.564956e-02
1.397500e+01	1.475100e-02
