#omega	spectral weight
-5.000000e+00	2.287640e-03
-4.975000e+00	2.303007e-03
-4.950000e+00	2.318548e-03
-4.925000e+00	2.334265e-03
-4.900000e+00	2.350163e-03
-4.875000e+00	2.366243e-03
-4.850000e+00	2.382509e-03
-4.825000e+00	2.398963e-03
-4.800000e+00	2.415610e-03
-4.775000e+00	2.432452e-03
-4.750000e+00	2.449493e-03
-4.725000e+00	2.466735e-03
-4.700000e+00	2.484184e-03
-4.675000e+00	2.501841e-03
-4.650000e+00	2.519710e-03
-4.625000e+00	2.537797e-03
-4.600000e+00	2.556103e-03
-4.575000e+00	2.574633e-03
-4.550000e+00	2.593391e-03
-4.525000e+00	2.612381e-03
-4.500000e+00	2.631608e-03
-4.475000e+00	2.651074e-03
-4.450000e+00	2.670786e-03
-4.425000e+00	2.690747e-03
-4.400000e+00	2.710961e-03
-4.375000e+00	2.731434e-03
-4.350000e+00	2.752171e-03
-4.325000e+00	2.773175e-03
-4.300000e+00	2.794453e-03
-4.275000e+00	2.816008e-03
-4.250000e+00	2.837848e-03
-4.225000e+00	2.859976e-03
-4.200000e+00	2.882399e-03
-4.175000e+00	2.905122e-03
-4.150000e+00	2.928151e-03
-4.125000e+00	2.951492e-03
-4.100000e+00	2.975151e-03
-4.075000e+00	2.999134e-03
-4.050000e+00	3.023449e-03
-4.025000e+00	3.048100e-03
-4.000000e+00	3.073096e-03
-3.975000e+00	3.098442e-03
-3.950000e+00	3.124147e-03
-3.925000e+00	3.150218e-03
-3.900000e+00	3.176661e-03
-3.875000e+00	3.203486e-03
-3.850000e+00	3.230699e-03
-3.825000e+00	3.258309e-03
-3.800000e+00	3.286324e-03
-3.775000e+00	3.314753e-03
-3.750000e+00	3.343605e-03
-3.725000e+00	3.372888e-03
-3.700000e+00	3.402613e-03
-3.675000e+00	3.432789e-03
-3.650000e+00	3.463424e-03
-3.625000e+00	3.494531e-03
-3.600000e+00	3.526119e-03
-3.575000e+00	3.558199e-03
-3.550000e+00	3.590782e-03
-3.525000e+00	3.623880e-03
-3.500000e+00	3.657503e-03
-3.475000e+00	3.691665e-03
-3.450000e+00	3.726378e-03
-3.425000e+00	3.761654e-03
-3.400000e+00	3.797507e-03
-3.375000e+00	3.833950e-03
-3.350000e+00	3.870997e-03
-3.325000e+00	3.908664e-03
-3.300000e+00	3.946964e-03
-3.275000e+00	3.985913e-03
-3.250000e+00	4.025528e-03
-3.225000e+00	4.065824e-03
-3.200000e+00	4.106818e-03
-3.175000e+00	4.148528e-03
-3.150000e+00	4.190971e-03
-3.125000e+00	4.234167e-03
-3.100000e+00	4.278135e-03
-3.075000e+00	4.322894e-03
-3.050000e+00	4.368465e-03
-3.025000e+00	4.414869e-03
-3.000000e+00	4.462128e-03
-2.975000e+00	4.510266e-03
-2.950000e+00	4.559304e-03
-2.925000e+00	4.609268e-03
-2.900000e+00	4.660183e-03
-2.875000e+00	4.712074e-03
-2.850000e+00	4.764969e-03
-2.825000e+00	4.818895e-03
-2.800000e+00	4.873882e-03
-2.775000e+00	4.929959e-03
-2.750000e+00	4.987158e-03
-2.725000e+00	5.045511e-03
-2.700000e+00	5.105050e-03
-2.675000e+00	5.165811e-03
-2.650000e+00	5.227830e-03
-2.625000e+00	5.291144e-03
-2.600000e+00	5.355792e-03
-2.575000e+00	5.421814e-03
-2.550000e+00	5.489252e-03
-2.525000e+00	5.558149e-03
-2.500000e+00	5.628551e-03
-2.475000e+00	5.700505e-03
-2.450000e+00	5.774059e-03
-2.425000e+00	5.849265e-03
-2.400000e+00	5.926176e-03
-2.375000e+00	6.004847e-03
-2.350000e+00	6.085335e-03
-2.325000e+00	6.167701e-03
-2.300000e+00	6.252007e-03
-2.275000e+00	6.338318e-03
-2.250000e+00	6.426702e-03
-2.225000e+00	6.517231e-03
-2.200000e+00	6.609979e-03
-2.175000e+00	6.705023e-03
-2.150000e+00	6.802444e-03
-2.125000e+00	6.902327e-03
-2.100000e+00	7.004760e-03
-2.075000e+00	7.109837e-03
-2.050000e+00	7.217654e-03
-2.025000e+00	7.328313e-03
-2.000000e+00	7.441921e-03
-1.975000e+00	7.558588e-03
-1.950000e+00	7.678433e-03
-1.925000e+00	7.801578e-03
-1.900000e+00	7.928152e-03
-1.875000e+00	8.058291e-03
-1.850000e+00	8.192136e-03
-1.825000e+00	8.329839e-03
-1.800000e+00	8.471555e-03
-1.775000e+00	8.617451e-03
-1.750000e+00	8.767702e-03
-1.725000e+00	8.922491e-03
-1.700000e+00	9.082013e-03
-1.675000e+00	9.246471e-03
-1.650000e+00	9.416082e-03
-1.625000e+00	9.591074e-03
-1.600000e+00	9.771688e-03
-1.575000e+00	9.958178e-03
-1.550000e+00	1.015082e-02
-1.525000e+00	1.034989e-02
-1.500000e+00	1.055569e-02
-1.475000e+00	1.076855e-02
-1.450000e+00	1.098881e-02
-1.425000e+00	1.121682e-02
-1.400000e+00	1.145298e-02
-1.375000e+00	1.169769e-02
-1.350000e+00	1.195139e-02
-1.325000e+00	1.221454e-02
-1.300000e+00	1.248763e-02
-1.275000e+00	1.277120e-02
-1.250000e+00	1.306580e-02
-1.225000e+00	1.337204e-02
-1.200000e+00	1.369057e-02
-1.175000e+00	1.402207e-02
-1.150000e+00	1.436728e-02
-1.125000e+00	1.472700e-02
-1.100000e+00	1.510208e-02
-1.075000e+00	1.549344e-02
-1.050000e+00	1.590206e-02
-1.025000e+00	1.632902e-02
-1.000000e+00	1.677545e-02
-9.750000e-01	1.724260e-02
-9.500000e-01	1.773182e-02
-9.250000e-01	1.824455e-02
-9.000000e-01	1.878236e-02
-8.750000e-01	1.934699e-02
-8.500000e-01	1.994027e-02
-8.250000e-01	2.056425e-02
-8.000000e-01	2.122112e-02
-7.750000e-01	2.191331e-02
-7.500000e-01	2.264346e-02
-7.250000e-01	2.341445e-02
-7.000000e-01	2.422948e-02
-6.750000e-01	2.509202e-02
-6.500000e-01	2.600594e-02
-6.250000e-01	2.697548e-02
-6.000000e-01	2.800535e-02
-5.750000e-01	2.910074e-02
-5.500000e-01	3.026745e-02
-5.250000e-01	3.151193e-02
-5.000000e-01	3.284136e-02
-4.750000e-01	3.426377e-02
-4.500000e-01	3.578820e-02
-4.250000e-01	3.742479e-02
-4.000000e-01	3.918496e-02
-3.750000e-01	4.108166e-02
-3.500000e-01	4.312955e-02
-3.250000e-01	4.534534e-02
-3.000000e-01	4.774810e-02
-2.750000e-01	5.035967e-02
-2.500000e-01	5.320521e-02
-2.250000e-01	5.631375e-02
-2.000000e-01	5.971897e-02
-1.750000e-01	6.346008e-02
-1.500000e-01	6.758299e-02
-1.250000e-01	7.214171e-02
-1.000000e-01	7.720005e-02
-7.500000e-02	8.283392e-02
-5.000000e-02	8.913410e-02
-2.500000e-02	9.620984e-02
7.105427e-14	1.041935e-01
2.500000e-02	1.132468e-01
5.000000e-02	1.235684e-01
7.500000e-02	1.354050e-01
1.000000e-01	1.490650e-01
1.250000e-01	1.649383e-01
1.500000e-01	1.835224e-01
1.750000e-01	2.054596e-01
2.000000e-01	2.315885e-01
2.250000e-01	2.630179e-01
2.500000e-01	3.012337e-01
2.750000e-01	3.482545e-01
3.000000e-01	4.068613e-01
3.250000e-01	4.809373e-01
3.500000e-01	5.759672e-01
3.750000e-01	6.997510e-01
4.000000e-01	8.633411e-01
4.250000e-01	1.081987e+00
4.500000e-01	1.375070e+00
4.750000e-01	1.761691e+00
5.000000e-01	2.243673e+00
5.250000e-01	2.765194e+00
5.500000e-01	3.168443e+00
5.750000e-01	3.249922e+00
6.000000e-01	2.959560e+00
6.250000e-01	2.462718e+00
6.500000e-01	1.953333e+00
6.750000e-01	1.526394e+00
7.000000e-01	1.197585e+00
7.250000e-01	9.517470e-01
7.500000e-01	7.686336e-01
7.750000e-01	6.311674e-01
8.000000e-01	5.266812e-01
8.250000e-01	4.461847e-01
8.500000e-01	3.833747e-01
8.750000e-01	3.338270e-01
9.000000e-01	2.944189e-01
9.250000e-01	2.629372e-01
9.500000e-01	2.378173e-01
9.750000e-01	2.179754e-01
1.000000e+00	2.027030e-01
1.025000e+00	1.916065e-01
1.050000e+00	1.845689e-01
1.075000e+00	1.816927e-01
1.100000e+00	1.831130e-01
1.125000e+00	1.884474e-01
1.150000e+00	1.957024e-01
1.175000e+00	2.005907e-01
1.200000e+00	1.990334e-01
1.225000e+00	1.918111e-01
1.250000e+00	1.840017e-01
1.275000e+00	1.802521e-01
1.300000e+00	1.828457e-01
1.325000e+00	1.921016e-01
1.350000e+00	2.061205e-01
1.375000e+00	2.198151e-01
1.400000e+00	2.267670e-01
1.425000e+00	2.255141e-01
1.450000e+00	2.212039e-01
1.475000e+00	2.185035e-01
1.500000e+00	2.163273e-01
1.525000e+00	2.102900e-01
1.550000e+00	1.995621e-01
1.575000e+00	1.886522e-01
1.600000e+00	1.824556e-01
1.625000e+00	1.828541e-01
1.650000e+00	1.882516e-01
1.675000e+00	1.937243e-01
1.700000e+00	1.936646e-01
1.725000e+00	1.874242e-01
1.750000e+00	1.801486e-01
1.775000e+00	1.774921e-01
1.800000e+00	1.825649e-01
1.825000e+00	1.960899e-01
1.850000e+00	2.160181e-01
1.875000e+00	2.356441e-01
1.900000e+00	2.442985e-01
1.925000e+00	2.358970e-01
1.950000e+00	2.160469e-01
1.975000e+00	1.951855e-01
2.000000e+00	1.794545e-01
2.025000e+00	1.696672e-01
2.050000e+00	1.642178e-01
2.075000e+00	1.613260e-01
2.100000e+00	1.589307e-01
2.125000e+00	1.549645e-01
2.150000e+00	1.498337e-01
2.175000e+00	1.465907e-01
2.200000e+00	1.483031e-01
2.225000e+00	1.568447e-01
2.250000e+00	1.730961e-01
2.275000e+00	1.964324e-01
2.300000e+00	2.225261e-01
2.325000e+00	2.413401e-01
2.350000e+00	2.419005e-01
2.375000e+00	2.236581e-01
2.400000e+00	1.971335e-01
2.425000e+00	1.726392e-01
2.450000e+00	1.547594e-01
2.475000e+00	1.441885e-01
2.500000e+00	1.399743e-01
2.525000e+00	1.399452e-01
2.550000e+00	1.406417e-01
2.575000e+00	1.390948e-01
2.600000e+00	1.357403e-01
2.625000e+00	1.338503e-01
2.650000e+00	1.365183e-01
2.675000e+00	1.455063e-01
2.700000e+00	1.613669e-01
2.725000e+00	1.826808e-01
2.750000e+00	2.039556e-01
2.775000e+00	2.153866e-01
2.800000e+00	2.099817e-01
2.825000e+00	1.914870e-01
2.850000e+00	1.694849e-01
2.875000e+00	1.504448e-01
2.900000e+00	1.365255e-01
2.925000e+00	1.279583e-01
2.950000e+00	1.239817e-01
2.975000e+00	1.226401e-01
3.000000e+00	1.214081e-01
3.025000e+00	1.193814e-01
3.050000e+00	1.182772e-01
3.075000e+00	1.205736e-01
3.100000e+00	1.278214e-01
3.125000e+00	1.401849e-01
3.150000e+00	1.557694e-01
3.175000e+00	1.699962e-01
3.200000e+00	1.777230e-01
3.225000e+00	1.770401e-01
3.250000e+00	1.688633e-01
3.275000e+00	1.552237e-01
3.300000e+00	1.394933e-01
3.325000e+00	1.248635e-01
3.350000e+00	1.127819e-01
3.375000e+00	1.033497e-01
3.400000e+00	9.642600e-02
3.425000e+00	9.199737e-02
3.450000e+00	9.003760e-02
3.475000e+00	9.070711e-02
3.500000e+00	9.440242e-02
3.525000e+00	1.013561e-01
3.550000e+00	1.112229e-01
3.575000e+00	1.228350e-01
3.600000e+00	1.341960e-01
3.625000e+00	1.426618e-01
3.650000e+00	1.452367e-01
3.675000e+00	1.402772e-01
3.700000e+00	1.291352e-01
3.725000e+00	1.151714e-01
3.750000e+00	1.018365e-01
3.775000e+00	9.126443e-02
3.800000e+00	8.411693e-02
3.825000e+00	8.022802e-02
3.850000e+00	7.906945e-02
3.875000e+00	7.983781e-02
3.900000e+00	8.163893e-02
3.925000e+00	8.412221e-02
3.950000e+00	8.784808e-02
3.975000e+00	9.366204e-02
4.000000e+00	1.015345e-01
4.025000e+00	1.097159e-01
4.050000e+00	1.154573e-01
4.075000e+00	1.175464e-01
4.100000e+00	1.167875e-01
4.125000e+00	1.133395e-01
4.150000e+00	1.066284e-01
4.175000e+00	9.788075e-02
4.200000e+00	8.971340e-02
4.225000e+00	8.387262e-02
4.250000e+00	8.060238e-02
4.275000e+00	7.911549e-02
4.300000e+00	7.831894e-02
4.325000e+00	7.770124e-02
4.350000e+00	7.768548e-02
4.375000e+00	7.919801e-02
4.400000e+00	8.301441e-02
4.425000e+00	8.922262e-02
4.450000e+00	9.668800e-02
4.475000e+00	1.028379e-01
4.500000e+00	1.051307e-01
4.525000e+00	1.033958e-01
4.550000e+00	9.920664e-02
4.575000e+00	9.369114e-02
4.600000e+00	8.777571e-02
4.625000e+00	8.281848e-02
4.650000e+00	7.985916e-02
4.675000e+00	7.906712e-02
4.700000e+00	7.974778e-02
4.725000e+00	8.060049e-02
4.750000e+00	8.063634e-02
4.775000e+00	8.018559e-02
4.800000e+00	8.050617e-02
4.825000e+00	8.264043e-02
4.850000e+00	8.681566e-02
4.875000e+00	9.211113e-02
4.900000e+00	9.623636e-02
4.925000e+00	9.669969e-02
4.950000e+00	9.331840e-02
4.975000e+00	8.835624e-02
5.000000e+00	8.408594e-02
5.025000e+00	8.158731e-02
5.050000e+00	8.110732e-02
5.075000e+00	8.254123e-02
5.100000e+00	8.553890e-02
5.125000e+00	8.933963e-02
5.150000e+00	9.284445e-02
5.175000e+00	9.547689e-02
5.200000e+00	9.783511e-02
5.225000e+00	1.008056e-01
5.250000e+00	1.044110e-01
5.275000e+00	1.079078e-01
5.300000e+00	1.110182e-01
5.325000e+00	1.146457e-01
5.350000e+00	1.201230e-01
5.375000e+00	1.284872e-01
5.400000e+00	1.404882e-01
5.425000e+00	1.566895e-01
5.450000e+00	1.772256e-01
5.475000e+00	2.014131e-01
5.500000e+00	2.281274e-01
5.525000e+00	2.568260e-01
5.550000e+00	2.865972e-01
5.575000e+00	3.144212e-01
5.600000e+00	3.384984e-01
5.625000e+00	3.617747e-01
5.650000e+00	3.853462e-01
5.675000e+00	4.004002e-01
5.700000e+00	3.944979e-01
5.725000e+00	3.679484e-01
5.750000e+00	3.344620e-01
5.775000e+00	3.063239e-01
5.800000e+00	2.870398e-01
5.825000e+00	2.731268e-01
5.850000e+00	2.589929e-01
5.875000e+00	2.426484e-01
5.900000e+00	2.266011e-01
5.925000e+00	2.137651e-01
5.950000e+00	2.052105e-01
5.975000e+00	2.007113e-01
6.000000e+00	1.996510e-01
6.025000e+00	2.014543e-01
6.050000e+00	2.057023e-01
6.075000e+00	2.121323e-01
6.100000e+00	2.206103e-01
6.125000e+00	2.311066e-01
6.150000e+00	2.436785e-01
6.175000e+00	2.584621e-01
6.200000e+00	2.756712e-01
6.225000e+00	2.956014e-01
6.250000e+00	3.186423e-01
6.275000e+00	3.452945e-01
6.300000e+00	3.761960e-01
6.325000e+00	4.121591e-01
6.350000e+00	4.542211e-01
6.375000e+00	5.037153e-01
6.400000e+00	5.623702e-01
6.425000e+00	6.324499e-01
6.450000e+00	7.169546e-01
6.475000e+00	8.199101e-01
6.500000e+00	9.467916e-01
6.525000e+00	1.105148e+00
6.550000e+00	1.305526e+00
6.575000e+00	1.562830e+00
6.600000e+00	1.898258e+00
6.625000e+00	2.341840e+00
6.650000e+00	2.934971e+00
6.675000e+00	3.730092e+00
6.700000e+00	4.778328e+00
6.725000e+00	6.082467e+00
6.750000e+00	7.486629e+00
6.775000e+00	8.558886e+00
6.800000e+00	8.753503e+00
6.825000e+00	7.950474e+00
6.850000e+00	6.604327e+00
6.875000e+00	5.233643e+00
6.900000e+00	4.088010e+00
6.925000e+00	3.206426e+00
6.950000e+00	2.547134e+00
6.975000e+00	2.055574e+00
7.000000e+00	1.685939e+00
7.025000e+00	1.404285e+00
7.050000e+00	1.186502e+00
7.075000e+00	1.015645e+00
7.100000e+00	8.797607e-01
7.125000e+00	7.703350e-01
7.150000e+00	6.812234e-01
7.175000e+00	6.079321e-01
7.200000e+00	5.471296e-01
7.225000e+00	4.963139e-01
7.250000e+00	4.535834e-01
7.275000e+00	4.174771e-01
7.300000e+00	3.868612e-01
7.325000e+00	3.608490e-01
7.350000e+00	3.387422e-01
7.375000e+00	3.199885e-01
7.400000e+00	3.041501e-01
7.425000e+00	2.908808e-01
7.450000e+00	2.799084e-01
7.475000e+00	2.710221e-01
7.500000e+00	2.640634e-01
7.525000e+00	2.589190e-01
7.550000e+00	2.555168e-01
7.575000e+00	2.538233e-01
7.600000e+00	2.538430e-01
7.625000e+00	2.556189e-01
7.650000e+00	2.592362e-01
7.675000e+00	2.648264e-01
7.700000e+00	2.725755e-01
7.725000e+00	2.827343e-01
7.750000e+00	2.956339e-01
7.775000e+00	3.117059e-01
7.800000e+00	3.315116e-01
7.825000e+00	3.557816e-01
7.850000e+00	3.854716e-01
7.875000e+00	4.218412e-01
7.900000e+00	4.665666e-01
7.925000e+00	5.219029e-01
7.950000e+00	5.909224e-01
7.975000e+00	6.778647e-01
8.000000e+00	7.886557e-01
8.025000e+00	9.316712e-01
8.050000e+00	1.118828e+00
8.075000e+00	1.367026e+00
8.100000e+00	1.699617e+00
8.125000e+00	2.146403e+00
8.150000e+00	2.737148e+00
8.175000e+00	3.476149e+00
8.200000e+00	4.280963e+00
8.225000e+00	4.912389e+00
8.250000e+00	5.054017e+00
8.275000e+00	4.617606e+00
8.300000e+00	3.852126e+00
8.325000e+00	3.060289e+00
8.350000e+00	2.393688e+00
8.375000e+00	1.878985e+00
8.400000e+00	1.493389e+00
8.425000e+00	1.205541e+00
8.450000e+00	9.888151e-01
8.475000e+00	8.234031e-01
8.500000e+00	6.952173e-01
8.525000e+00	5.943529e-01
8.550000e+00	5.138243e-01
8.575000e+00	4.486555e-01
8.600000e+00	3.952565e-01
8.625000e+00	3.510006e-01
8.650000e+00	3.139395e-01
8.675000e+00	2.826080e-01
8.700000e+00	2.558901e-01
8.725000e+00	2.329253e-01
8.750000e+00	2.130426e-01
8.775000e+00	1.957132e-01
8.800000e+00	1.805160e-01
8.825000e+00	1.671130e-01
8.850000e+00	1.552301e-01
8.875000e+00	1.446435e-01
8.900000e+00	1.351690e-01
8.925000e+00	1.266541e-01
8.950000e+00	1.189713e-01
8.975000e+00	1.120138e-01
9.000000e+00	1.056914e-01
9.025000e+00	9.992750e-02
9.050000e+00	9.465682e-02
9.075000e+00	8.982334e-02
9.100000e+00	8.537882e-02
9.125000e+00	8.128156e-02
9.150000e+00	7.749531e-02
9.175000e+00	7.398849e-02
9.200000e+00	7.073347e-02
9.225000e+00	6.770597e-02
9.250000e+00	6.488460e-02
9.275000e+00	6.225046e-02
9.300000e+00	5.978679e-02
9.325000e+00	5.747868e-02
9.350000e+00	5.531286e-02
9.375000e+00	5.327743e-02
9.400000e+00	5.136177e-02
9.425000e+00	4.955629e-02
9.450000e+00	4.785239e-02
9.475000e+00	4.624230e-02
9.500000e+00	4.471897e-02
9.525000e+00	4.327604e-02
9.550000e+00	4.190772e-02
9.575000e+00	4.060875e-02
9.600000e+00	3.937431e-02
9.625000e+00	3.820003e-02
9.650000e+00	3.708190e-02
9.675000e+00	3.601623e-02
9.700000e+00	3.499966e-02
9.725000e+00	3.402909e-02
9.750000e+00	3.310166e-02
9.775000e+00	3.221474e-02
9.800000e+00	3.136590e-02
9.825000e+00	3.055290e-02
9.850000e+00	2.977366e-02
9.875000e+00	2.902624e-02
9.900000e+00	2.830887e-02
9.925000e+00	2.761988e-02
9.950000e+00	2.695773e-02
9.975000e+00	2.632098e-02
1.000000e+01	2.570828e-02
1.002500e+01	2.511840e-02
1.005000e+01	2.455015e-02
1.007500e+01	2.400244e-02
1.010000e+01	2.347425e-02
1.012500e+01	2.296463e-02
1.015000e+01	2.247267e-02
1.017500e+01	2.199753e-02
1.020000e+01	2.153842e-02
1.022500e+01	2.109459e-02
1.025000e+01	2.066534e-02
1.027500e+01	2.025002e-02
1.030000e+01	1.984799e-02
1.032500e+01	1.945867e-02
1.035000e+01	1.908151e-02
1.037500e+01	1.871598e-02
1.040000e+01	1.836160e-02
1.042500e+01	1.801788e-02
1.045000e+01	1.768440e-02
1.047500e+01	1.736072e-02
1.050000e+01	1.704645e-02
1.052500e+01	1.674122e-02
1.055000e+01	1.644466e-02
1.057500e+01	1.615644e-02
1.060000e+01	1.587623e-02
1.062500e+01	1.560372e-02
1.065000e+01	1.533864e-02
1.067500e+01	1.508068e-02
1.070000e+01	1.482960e-02
1.072500e+01	1.458514e-02
1.075000e+01	1.434706e-02
1.077500e+01	1.411512e-02
1.080000e+01	1.388912e-02
1.082500e+01	1.366884e-02
1.085000e+01	1.345408e-02
1.087500e+01	1.324465e-02
1.090000e+01	1.304038e-02
1.092500e+01	1.284107e-02
1.095000e+01	1.264658e-02
1.097500e+01	1.245674e-02
1.100000e+01	1.227139e-02
1.102500e+01	1.209039e-02
1.105000e+01	1.191360e-02
1.107500e+01	1.174088e-02
1.110000e+01	1.157211e-02
1.112500e+01	1.140716e-02
1.115000e+01	1.124592e-02
1.117500e+01	1.108826e-02
1.120000e+01	1.093408e-02
1.122500e+01	1.078327e-02
1.125000e+01	1.063573e-02
1.127500e+01	1.049137e-02
1.130000e+01	1.035009e-02
1.132500e+01	1.021180e-02
1.135000e+01	1.007641e-02
1.137500e+01	9.943836e-03
1.140000e+01	9.814004e-03
1.142500e+01	9.686834e-03
1.145000e+01	9.562249e-03
1.147500e+01	9.440179e-03
1.150000e+01	9.320552e-03
1.152500e+01	9.203303e-03
1.155000e+01	9.088366e-03
1.157500e+01	8.975679e-03
1.160000e+01	8.865181e-03
1.162500e+01	8.756814e-03
1.165000e+01	8.650521e-03
1.167500e+01	8.546249e-03
1.170000e+01	8.443944e-03
1.172500e+01	8.343556e-03
1.175000e+01	8.245035e-03
1.177500e+01	8.148334e-03
1.180000e+01	8.053407e-03
1.182500e+01	7.960209e-03
1.185000e+01	7.868697e-03
1.187500e+01	7.778829e-03
1.190000e+01	7.690565e-03
1.192500e+01	7.603866e-03
1.195000e+01	7.518693e-03
1.197500e+01	7.435009e-03
1.200000e+01	7.352780e-03
1.202500e+01	7.271971e-03
1.205000e+01	7.192547e-03
1.207500e+01	7.114477e-03
1.210000e+01	7.037729e-03
1.212500e+01	6.962272e-03
1.215000e+01	6.888076e-03
1.217500e+01	6.815114e-03
1.220000e+01	6.743355e-03
1.222500e+01	6.672775e-03
1.225000e+01	6.603345e-03
1.227500e+01	6.535041e-03
1.230000e+01	6.467837e-03
1.232500e+01	6.401710e-03
1.235000e+01	6.336635e-03
1.237500e+01	6.272590e-03
1.240000e+01	6.209552e-03
1.242500e+01	6.147501e-03
1.245000e+01	6.086414e-03
1.247500e+01	6.026271e-03
1.250000e+01	5.967053e-03
1.252500e+01	5.908739e-03
1.255000e+01	5.851312e-03
1.257500e+01	5.794752e-03
1.260000e+01	5.739042e-03
1.262500e+01	5.684165e-03
1.265000e+01	5.630102e-03
1.267500e+01	5.576839e-03
1.270000e+01	5.524358e-03
1.272500e+01	5.472645e-03
1.275000e+01	5.421683e-03
1.277500e+01	5.371457e-03
1.280000e+01	5.321955e-03
1.282500e+01	5.273160e-03
1.285000e+01	5.225059e-03
1.287500e+01	5.177640e-03
1.290000e+01	5.130888e-03
1.292500e+01	5.084790e-03
1.295000e+01	5.039336e-03
1.297500e+01	4.994511e-03
1.300000e+01	4.950305e-03
1.302500e+01	4.906705e-03
1.305000e+01	4.863700e-03
1.307500e+01	4.821280e-03
1.310000e+01	4.779433e-03
1.312500e+01	4.738149e-03
1.315000e+01	4.697417e-03
1.317500e+01	4.657227e-03
1.320000e+01	4.617571e-03
1.322500e+01	4.578437e-03
1.325000e+01	4.539817e-03
1.327500e+01	4.501701e-03
1.330000e+01	4.464081e-03
1.332500e+01	4.426947e-03
1.335000e+01	4.390291e-03
1.337500e+01	4.354105e-03
1.340000e+01	4.318381e-03
1.342500e+01	4.283110e-03
1.345000e+01	4.248284e-03
1.347500e+01	4.213897e-03
1.350000e+01	4.179940e-03
1.352500e+01	4.146406e-03
1.355000e+01	4.113288e-03
1.357500e+01	4.080579e-03
1.360000e+01	4.048273e-03
1.362500e+01	4.016361e-03
1.365000e+01	3.984839e-03
1.367500e+01	3.953698e-03
1.370000e+01	3.922934e-03
1.372500e+01	3.892540e-03
1.375000e+01	3.862509e-03
1.377500e+01	3.832836e-03
1.380000e+01	3.803515e-03
1.382500e+01	3.774541e-03
1.385000e+01	3.745908e-03
1.387500e+01	3.717609e-03
1.390000e+01	3.689641e-03
1.392500e+01	3.661998e-03
1.395000e+01	3.634674e-03
1.397500e+01	3.607665e-03
