#omega	spectral weight
-5.000000e+00	2.919348e-04
-4.975000e+00	2.938256e-04
-4.950000e+00	2.957385e-04
-4.925000e+00	2.976739e-04
-4.900000e+00	2.996322e-04
-4.875000e+00	3.016138e-04
-4.850000e+00	3.036191e-04
-4.825000e+00	3.056486e-04
-4.800000e+00	3.077026e-04
-4.775000e+00	3.097817e-04
-4.750000e+00	3.118863e-04
-4.725000e+00	3.140168e-04
-4.700000e+00	3.161737e-04
-4.675000e+00	3.183576e-04
-4.650000e+00	3.205689e-04
-4.625000e+00	3.228082e-04
-4.600000e+00	3.250759e-04
-4.575000e+00	3.273726e-04
-4.550000e+00	3.296989e-04
-4.525000e+00	3.320554e-04
-4.500000e+00	3.344426e-04
-4.475000e+00	3.368611e-04
-4.450000e+00	3.393116e-04
-4.425000e+00	3.417946e-04
-4.400000e+00	3.443109e-04
-4.375000e+00	3.468611e-04
-4.350000e+00	3.494459e-04
-4.325000e+00	3.520659e-04
-4.300000e+00	3.547219e-04
-4.275000e+00	3.574147e-04
-4.250000e+00	3.601449e-04
-4.225000e+00	3.629135e-04
-4.200000e+00	3.657211e-04
-4.175000e+00	3.685687e-04
-4.150000e+00	3.714569e-04
-4.125000e+00	3.743869e-04
-4.100000e+00	3.773593e-04
-4.075000e+00	3.803752e-04
-4.050000e+00	3.834354e-04
-4.025000e+00	3.865411e-04
-4.000000e+00	3.896930e-04
-3.975000e+00	3.928924e-04
-3.950000e+00	3.961403e-04
-3.925000e+00	3.994377e-04
-3.900000e+00	4.027858e-04
-3.875000e+00	4.061857e-04
-3.850000e+00	4.096387e-04
-3.825000e+00	4.131460e-04
-3.800000e+00	4.167088e-04
-3.775000e+00	4.203284e-04
-3.750000e+00	4.240062e-04
-3.725000e+00	4.277436e-04
-3.700000e+00	4.315421e-04
-3.675000e+00	4.354030e-04
-3.650000e+00	4.393280e-04
-3.625000e+00	4.433185e-04
-3.600000e+00	4.473763e-04
-3.575000e+00	4.515030e-04
-3.550000e+00	4.557004e-04
-3.525000e+00	4.599702e-04
-3.500000e+00	4.643143e-04
-3.475000e+00	4.687345e-04
-3.450000e+00	4.732330e-04
-3.425000e+00	4.778117e-04
-3.400000e+00	4.824727e-04
-3.375000e+00	4.872182e-04
-3.350000e+00	4.920506e-04
-3.325000e+00	4.969721e-04
-3.300000e+00	5.019851e-04
-3.275000e+00	5.070922e-04
-3.250000e+00	5.122960e-04
-3.225000e+00	5.175992e-04
-3.200000e+00	5.230045e-04
-3.175000e+00	5.285150e-04
-3.150000e+00	5.341334e-04
-3.125000e+00	5.398631e-04
-3.100000e+00	5.457072e-04
-3.075000e+00	5.516691e-04
-3.050000e+00	5.577523e-04
-3.025000e+00	5.639603e-04
-3.000000e+00	5.702970e-04
-2.975000e+00	5.767663e-04
-2.950000e+00	5.833721e-04
-2.925000e+00	5.901188e-04
-2.900000e+00	5.970108e-04
-2.875000e+00	6.040525e-04
-2.850000e+00	6.112489e-04
-2.825000e+00	6.186047e-04
-2.800000e+00	6.261253e-04
-2.775000e+00	6.338159e-04
-2.750000e+00	6.416822e-04
-2.725000e+00	6.497300e-04
-2.700000e+00	6.579654e-04
-2.675000e+00	6.663948e-04
-2.650000e+00	6.750249e-04
-2.625000e+00	6.838625e-04
-2.600000e+00	6.929150e-04
-2.575000e+00	7.021899e-04
-2.550000e+00	7.116952e-04
-2.525000e+00	7.214391e-04
-2.500000e+00	7.314303e-04
-2.475000e+00	7.416779e-04
-2.450000e+00	7.521914e-04
-2.425000e+00	7.629809e-04
-2.400000e+00	7.740567e-04
-2.375000e+00	7.854299e-04
-2.350000e+00	7.971120e-04
-2.325000e+00	8.091151e-04
-2.300000e+00	8.214518e-04
-2.275000e+00	8.341357e-04
-2.250000e+00	8.471806e-04
-2.225000e+00	8.606014e-04
-2.200000e+00	8.744137e-04
-2.175000e+00	8.886338e-04
-2.150000e+00	9.032791e-04
-2.125000e+00	9.183679e-04
-2.100000e+00	9.339192e-04
-2.075000e+00	9.499535e-04
-2.050000e+00	9.664923e-04
-2.025000e+00	9.835582e-04
-2.000000e+00	1.001175e-03
-1.975000e+00	1.019369e-03
-1.950000e+00	1.038166e-03
-1.925000e+00	1.057596e-03
-1.900000e+00	1.077687e-03
-1.875000e+00	1.098474e-03
-1.850000e+00	1.119989e-03
-1.825000e+00	1.142270e-03
-1.800000e+00	1.165354e-03
-1.775000e+00	1.189284e-03
-1.750000e+00	1.214102e-03
-1.725000e+00	1.239857e-03
-1.700000e+00	1.266598e-03
-1.675000e+00	1.294378e-03
-1.650000e+00	1.323255e-03
-1.625000e+00	1.353291e-03
-1.600000e+00	1.384550e-03
-1.575000e+00	1.417104e-03
-1.550000e+00	1.451028e-03
-1.525000e+00	1.486405e-03
-1.500000e+00	1.523321e-03
-1.475000e+00	1.561871e-03
-1.450000e+00	1.602157e-03
-1.425000e+00	1.644290e-03
-1.400000e+00	1.688389e-03
-1.375000e+00	1.734584e-03
-1.350000e+00	1.783013e-03
-1.325000e+00	1.833831e-03
-1.300000e+00	1.887202e-03
-1.275000e+00	1.943307e-03
-1.250000e+00	2.002343e-03
-1.225000e+00	2.064525e-03
-1.200000e+00	2.130089e-03
-1.175000e+00	2.199294e-03
-1.150000e+00	2.272424e-03
-1.125000e+00	2.349792e-03
-1.100000e+00	2.431742e-03
-1.075000e+00	2.518657e-03
-1.050000e+00	2.610959e-03
-1.025000e+00	2.709119e-03
-1.000000e+00	2.813657e-03
-9.750000e-01	2.925160e-03
-9.500000e-01	3.044278e-03
-9.250000e-01	3.171747e-03
-9.000000e-01	3.308392e-03
-8.750000e-01	3.455146e-03
-8.500000e-01	3.613069e-03
-8.250000e-01	3.783366e-03
-8.000000e-01	3.967415e-03
-7.750000e-01	4.166803e-03
-7.500000e-01	4.383362e-03
-7.250000e-01	4.619220e-03
-7.000000e-01	4.876873e-03
-6.750000e-01	5.159260e-03
-6.500000e-01	5.469877e-03
-6.250000e-01	5.812900e-03
-6.000000e-01	6.193325e-03
-5.750000e-01	6.617029e-03
-5.500000e-01	7.090585e-03
-5.250000e-01	7.620527e-03
-5.000000e-01	8.212516e-03
-4.750000e-01	8.873081e-03
-4.500000e-01	9.615540e-03
-4.250000e-01	1.046318e-02
-4.000000e-01	1.144574e-02
-3.750000e-01	1.259701e-02
-3.500000e-01	1.395540e-02
-3.250000e-01	1.556183e-02
-3.000000e-01	1.744819e-02
-2.750000e-01	1.961867e-02
-2.500000e-01	2.206078e-02
-2.250000e-01	2.483201e-02
-2.000000e-01	2.813544e-02
-1.750000e-01	3.227303e-02
-1.500000e-01	3.758469e-02
-1.250000e-01	4.445637e-02
-1.000000e-01	5.332817e-02
-7.500000e-02	6.461736e-02
-5.000000e-02	7.855329e-02
-2.500000e-02	9.521722e-02
7.105427e-14	1.151533e-01
2.500000e-02	1.395419e-01
5.000000e-02	1.684726e-01
7.500000e-02	1.989601e-01
1.000000e-01	2.258025e-01
1.250000e-01	2.434617e-01
1.500000e-01	2.450587e-01
1.750000e-01	2.263587e-01
2.000000e-01	1.935716e-01
2.250000e-01	1.584995e-01
2.500000e-01	1.288444e-01
2.750000e-01	1.067032e-01
3.000000e-01	9.121848e-02
3.250000e-01	8.033616e-02
3.500000e-01	7.152543e-02
3.750000e-01	6.286446e-02
4.000000e-01	5.413710e-02
4.250000e-01	4.620226e-02
4.500000e-01	3.968633e-02
4.750000e-01	3.465462e-02
5.000000e-01	3.085188e-02
5.250000e-01	2.791646e-02
5.500000e-01	2.555243e-02
5.750000e-01	2.366765e-02
6.000000e-01	2.232470e-02
6.250000e-01	2.159664e-02
6.500000e-01	2.150055e-02
6.750000e-01	2.196157e-02
7.000000e-01	2.274429e-02
7.250000e-01	2.342328e-02
7.500000e-01	2.355123e-02
7.750000e-01	2.297095e-02
8.000000e-01	2.194426e-02
8.250000e-01	2.099240e-02
8.500000e-01	2.057008e-02
8.750000e-01	2.085551e-02
9.000000e-01	2.169592e-02
9.250000e-01	2.259254e-02
9.500000e-01	2.294726e-02
9.750000e-01	2.263018e-02
1.000000e+00	2.207660e-02
1.025000e+00	2.169681e-02
1.050000e+00	2.145814e-02
1.075000e+00	2.108261e-02
1.100000e+00	2.051433e-02
1.125000e+00	1.996211e-02
1.150000e+00	1.966016e-02
1.175000e+00	1.978742e-02
1.200000e+00	2.031907e-02
1.225000e+00	2.083956e-02
1.250000e+00	2.074732e-02
1.275000e+00	1.990716e-02
1.300000e+00	1.884728e-02
1.325000e+00	1.819551e-02
1.350000e+00	1.828860e-02
1.375000e+00	1.917536e-02
1.400000e+00	2.061251e-02
1.425000e+00	2.195403e-02
1.450000e+00	2.234776e-02
1.475000e+00	2.151843e-02
1.500000e+00	2.009359e-02
1.525000e+00	1.886096e-02
1.550000e+00	1.815898e-02
1.575000e+00	1.790636e-02
1.600000e+00	1.785912e-02
1.625000e+00	1.780200e-02
1.650000e+00	1.755061e-02
1.675000e+00	1.694631e-02
1.700000e+00	1.607076e-02
1.725000e+00	1.529125e-02
1.750000e+00	1.497263e-02
1.775000e+00	1.531239e-02
1.800000e+00	1.636101e-02
1.825000e+00	1.799550e-02
1.850000e+00	1.977805e-02
1.875000e+00	2.095131e-02
1.900000e+00	2.095337e-02
1.925000e+00	1.998355e-02
1.950000e+00	1.871586e-02
1.975000e+00	1.763449e-02
2.000000e+00	1.684009e-02
2.025000e+00	1.627883e-02
2.050000e+00	1.594987e-02
2.075000e+00	1.580842e-02
2.100000e+00	1.561804e-02
2.125000e+00	1.511898e-02
2.150000e+00	1.437699e-02
2.175000e+00	1.375420e-02
2.200000e+00	1.357901e-02
2.225000e+00	1.401396e-02
2.250000e+00	1.508066e-02
2.275000e+00	1.661420e-02
2.300000e+00	1.813047e-02
2.325000e+00	1.892014e-02
2.350000e+00	1.865721e-02
2.375000e+00	1.775935e-02
2.400000e+00	1.684172e-02
2.425000e+00	1.617469e-02
2.450000e+00	1.566578e-02
2.475000e+00	1.513540e-02
2.500000e+00	1.457445e-02
2.525000e+00	1.403157e-02
2.550000e+00	1.343237e-02
2.575000e+00	1.275427e-02
2.600000e+00	1.218923e-02
2.625000e+00	1.198368e-02
2.650000e+00	1.227687e-02
2.675000e+00	1.307181e-02
2.700000e+00	1.419543e-02
2.725000e+00	1.525987e-02
2.750000e+00	1.585136e-02
2.775000e+00	1.586317e-02
2.800000e+00	1.547377e-02
2.825000e+00	1.493883e-02
2.850000e+00	1.445987e-02
2.875000e+00	1.401074e-02
2.900000e+00	1.336965e-02
2.925000e+00	1.242624e-02
2.950000e+00	1.133864e-02
2.975000e+00	1.035037e-02
3.000000e+00	9.604473e-03
3.025000e+00	9.161364e-03
3.050000e+00	9.060848e-03
3.075000e+00	9.326603e-03
3.100000e+00	9.945881e-03
3.125000e+00	1.083596e-02
3.150000e+00	1.181639e-02
3.175000e+00	1.262230e-02
3.200000e+00	1.298278e-02
3.225000e+00	1.278393e-02
3.250000e+00	1.214374e-02
3.275000e+00	1.129813e-02
3.300000e+00	1.042597e-02
3.325000e+00	9.571100e-03
3.350000e+00	8.762991e-03
3.375000e+00	8.094673e-03
3.400000e+00	7.635948e-03
3.425000e+00	7.373600e-03
3.450000e+00	7.253838e-03
3.475000e+00	7.266230e-03
3.500000e+00	7.463449e-03
3.525000e+00	7.895574e-03
3.550000e+00	8.536969e-03
3.575000e+00	9.234179e-03
3.600000e+00	9.744689e-03
3.625000e+00	9.934753e-03
3.650000e+00	9.858887e-03
3.675000e+00	9.569604e-03
3.700000e+00	9.059188e-03
3.725000e+00	8.377573e-03
3.750000e+00	7.662962e-03
3.775000e+00	7.062132e-03
3.800000e+00	6.639227e-03
3.825000e+00	6.364137e-03
3.850000e+00	6.175918e-03
3.875000e+00	6.063353e-03
3.900000e+00	6.074334e-03
3.925000e+00	6.256315e-03
3.950000e+00	6.607726e-03
3.975000e+00	7.053974e-03
4.000000e+00	7.463109e-03
4.025000e+00	7.719845e-03
4.050000e+00	7.768996e-03
4.075000e+00	7.609076e-03
4.100000e+00	7.270745e-03
4.125000e+00	6.784068e-03
4.150000e+00	6.221569e-03
4.175000e+00	5.700397e-03
4.200000e+00	5.303059e-03
4.225000e+00	5.046112e-03
4.250000e+00	4.895776e-03
4.275000e+00	4.792670e-03
4.300000e+00	4.696317e-03
4.325000e+00	4.621564e-03
4.350000e+00	4.614067e-03
4.375000e+00	4.707686e-03
4.400000e+00	4.906754e-03
4.425000e+00	5.168428e-03
4.450000e+00	5.380334e-03
4.475000e+00	5.402577e-03
4.500000e+00	5.201561e-03
4.525000e+00	4.888259e-03
4.550000e+00	4.592527e-03
4.575000e+00	4.379821e-03
4.600000e+00	4.264523e-03
4.625000e+00	4.239457e-03
4.650000e+00	4.285790e-03
4.675000e+00	4.367361e-03
4.700000e+00	4.433322e-03
4.725000e+00	4.454811e-03
4.750000e+00	4.453180e-03
4.775000e+00	4.460694e-03
4.800000e+00	4.470395e-03
4.825000e+00	4.443070e-03
4.850000e+00	4.361696e-03
4.875000e+00	4.257858e-03
4.900000e+00	4.174907e-03
4.925000e+00	4.135902e-03
4.950000e+00	4.145071e-03
4.975000e+00	4.197424e-03
5.000000e+00	4.282304e-03
5.025000e+00	4.379158e-03
5.050000e+00	4.456112e-03
5.075000e+00	4.491624e-03
5.100000e+00	4.497837e-03
5.125000e+00	4.502817e-03
5.150000e+00	4.522926e-03
5.175000e+00	4.561017e-03
5.200000e+00	4.614118e-03
5.225000e+00	4.677438e-03
5.250000e+00	4.748840e-03
5.275000e+00	4.829775e-03
5.300000e+00	4.921845e-03
5.325000e+00	5.027593e-03
5.350000e+00	5.149753e-03
5.375000e+00	5.287119e-03
5.400000e+00	5.436014e-03
5.425000e+00	5.596362e-03
5.450000e+00	5.774144e-03
5.475000e+00	5.976346e-03
5.500000e+00	6.207294e-03
5.525000e+00	6.466852e-03
5.550000e+00	6.743707e-03
5.575000e+00	7.015937e-03
5.600000e+00	7.267223e-03
5.625000e+00	7.495865e-03
5.650000e+00	7.705505e-03
5.675000e+00	7.905373e-03
5.700000e+00	8.120075e-03
5.725000e+00	8.381944e-03
5.750000e+00	8.711609e-03
5.775000e+00	9.107932e-03
5.800000e+00	9.550648e-03
5.825000e+00	1.001108e-02
5.850000e+00	1.047769e-02
5.875000e+00	1.098327e-02
5.900000e+00	1.158700e-02
5.925000e+00	1.232568e-02
5.950000e+00	1.318428e-02
5.975000e+00	1.409124e-02
6.000000e+00	1.494535e-02
6.025000e+00	1.566415e-02
6.050000e+00	1.621477e-02
6.075000e+00	1.662543e-02
6.100000e+00	1.698963e-02
6.125000e+00	1.744393e-02
6.150000e+00	1.811495e-02
6.175000e+00	1.906854e-02
6.200000e+00	2.030476e-02
6.225000e+00	2.177758e-02
6.250000e+00	2.340588e-02
6.275000e+00	2.512315e-02
6.300000e+00	2.696602e-02
6.325000e+00	2.905976e-02
6.350000e+00	3.148369e-02
6.375000e+00	3.416366e-02
6.400000e+00	3.681064e-02
6.425000e+00	3.902924e-02
6.450000e+00	4.060403e-02
6.475000e+00	4.168450e-02
6.500000e+00	4.269999e-02
6.525000e+00	4.408063e-02
6.550000e+00	4.614146e-02
6.575000e+00	4.912798e-02
6.600000e+00	5.316589e-02
6.625000e+00	5.823162e-02
6.650000e+00	6.417934e-02
6.675000e+00	7.066368e-02
6.700000e+00	7.724432e-02
6.725000e+00	8.384228e-02
6.750000e+00	9.083562e-02
6.775000e+00	9.851435e-02
6.800000e+00	1.065959e-01
6.825000e+00	1.141923e-01
6.850000e+00	1.204118e-01
6.875000e+00	1.250681e-01
6.900000e+00	1.289275e-01
6.925000e+00	1.335205e-01
6.950000e+00	1.405337e-01
6.975000e+00	1.513527e-01
7.000000e+00	1.666991e-01
7.025000e+00	1.860026e-01
7.050000e+00	2.071824e-01
7.075000e+00	2.272632e-01
7.100000e+00	2.436912e-01
7.125000e+00	2.562776e-01
7.150000e+00	2.670575e-01
7.175000e+00	2.771886e-01
7.200000e+00	2.854476e-01
7.225000e+00	2.898310e-01
7.250000e+00	2.898748e-01
7.275000e+00	2.880280e-01
7.300000e+00	2.883568e-01
7.325000e+00	2.938212e-01
7.350000e+00	3.042920e-01
7.375000e+00	3.162846e-01
7.400000e+00	3.252051e-01
7.425000e+00	3.271950e-01
7.450000e+00	3.188157e-01
7.475000e+00	2.987352e-01
7.500000e+00	2.707055e-01
7.525000e+00	2.417341e-01
7.550000e+00	2.167823e-01
7.575000e+00	1.964457e-01
7.600000e+00	1.788450e-01
7.625000e+00	1.621825e-01
7.650000e+00	1.459939e-01
7.675000e+00	1.308974e-01
7.700000e+00	1.175603e-01
7.725000e+00	1.062566e-01
7.750000e+00	9.705560e-02
7.775000e+00	9.006573e-02
7.800000e+00	8.550004e-02
7.825000e+00	8.355354e-02
7.850000e+00	8.429911e-02
7.875000e+00	8.767364e-02
7.900000e+00	9.340973e-02
7.925000e+00	1.008580e-01
7.950000e+00	1.089363e-01
7.975000e+00	1.166424e-01
8.000000e+00	1.237512e-01
8.025000e+00	1.306495e-01
8.050000e+00	1.376270e-01
8.075000e+00	1.445258e-01
8.100000e+00	1.506581e-01
8.125000e+00	1.553975e-01
8.150000e+00	1.595590e-01
8.175000e+00	1.652949e-01
8.200000e+00	1.739975e-01
8.225000e+00	1.848468e-01
8.250000e+00	1.956890e-01
8.275000e+00	2.050806e-01
8.300000e+00	2.125542e-01
8.325000e+00	2.172679e-01
8.350000e+00	2.177883e-01
8.375000e+00	2.136657e-01
8.400000e+00	2.069643e-01
8.425000e+00	2.008106e-01
8.450000e+00	1.968819e-01
8.475000e+00	1.951158e-01
8.500000e+00	1.948381e-01
8.525000e+00	1.954472e-01
8.550000e+00	1.965766e-01
8.575000e+00	1.987374e-01
8.600000e+00	2.028757e-01
8.625000e+00	2.085458e-01
8.650000e+00	2.135521e-01
8.675000e+00	2.159456e-01
8.700000e+00	2.156971e-01
8.725000e+00	2.134925e-01
8.750000e+00	2.094538e-01
8.775000e+00	2.035750e-01
8.800000e+00	1.963503e-01
8.825000e+00	1.891812e-01
8.850000e+00	1.838039e-01
8.875000e+00	1.809500e-01
8.900000e+00	1.802691e-01
8.925000e+00	1.812502e-01
8.950000e+00	1.833704e-01
8.975000e+00	1.858419e-01
9.000000e+00	1.885005e-01
9.025000e+00	1.916761e-01
9.050000e+00	1.943392e-01
9.075000e+00	1.942993e-01
9.100000e+00	1.911595e-01
9.125000e+00	1.869683e-01
9.150000e+00	1.831010e-01
9.175000e+00	1.794018e-01
9.200000e+00	1.759031e-01
9.225000e+00	1.727988e-01
9.250000e+00	1.698489e-01
9.275000e+00	1.671921e-01
9.300000e+00	1.655597e-01
9.325000e+00	1.651700e-01
9.350000e+00	1.656229e-01
9.375000e+00	1.668003e-01
9.400000e+00	1.685074e-01
9.425000e+00	1.700399e-01
9.450000e+00	1.708454e-01
9.475000e+00	1.708411e-01
9.500000e+00	1.702562e-01
9.525000e+00	1.697951e-01
9.550000e+00	1.697331e-01
9.575000e+00	1.692566e-01
9.600000e+00	1.677805e-01
9.625000e+00	1.655567e-01
9.650000e+00	1.629468e-01
9.675000e+00	1.603822e-01
9.700000e+00	1.586511e-01
9.725000e+00	1.582096e-01
9.750000e+00	1.587276e-01
9.775000e+00	1.598383e-01
9.800000e+00	1.613865e-01
9.825000e+00	1.634311e-01
9.850000e+00	1.668143e-01
9.875000e+00	1.725272e-01
9.900000e+00	1.797116e-01
9.925000e+00	1.850848e-01
9.950000e+00	1.861168e-01
9.975000e+00	1.843277e-01
1.000000e+01	1.830345e-01
1.002500e+01	1.836163e-01
1.005000e+01	1.855865e-01
1.007500e+01	1.884913e-01
1.010000e+01	1.920217e-01
1.012500e+01	1.956691e-01
1.015000e+01	2.000115e-01
1.017500e+01	2.063272e-01
1.020000e+01	2.151656e-01
1.022500e+01	2.273852e-01
1.025000e+01	2.440419e-01
1.027500e+01	2.636339e-01
1.030000e+01	2.816307e-01
1.032500e+01	2.941191e-01
1.035000e+01	3.012553e-01
1.037500e+01	3.047149e-01
1.040000e+01	3.044555e-01
1.042500e+01	3.011342e-01
1.045000e+01	2.974254e-01
1.047500e+01	2.967528e-01
1.050000e+01	3.009804e-01
1.052500e+01	3.057042e-01
1.055000e+01	3.006611e-01
1.057500e+01	2.803395e-01
1.060000e+01	2.506924e-01
1.062500e+01	2.208575e-01
1.065000e+01	1.947534e-01
1.067500e+01	1.718348e-01
1.070000e+01	1.507027e-01
1.072500e+01	1.310114e-01
1.075000e+01	1.137229e-01
1.077500e+01	9.989871e-02
1.080000e+01	8.955111e-02
1.082500e+01	8.149000e-02
1.085000e+01	7.400435e-02
1.087500e+01	6.618094e-02
1.090000e+01	5.838701e-02
1.092500e+01	5.131357e-02
1.095000e+01	4.531010e-02
1.097500e+01	4.043095e-02
1.100000e+01	3.654846e-02
1.102500e+01	3.340199e-02
1.105000e+01	3.068152e-02
1.107500e+01	2.817396e-02
1.110000e+01	2.585473e-02
1.112500e+01	2.380090e-02
1.115000e+01	2.203410e-02
1.117500e+01	2.047838e-02
1.120000e+01	1.904235e-02
1.122500e+01	1.770347e-02
1.125000e+01	1.648173e-02
1.127500e+01	1.538390e-02
1.130000e+01	1.440640e-02
1.132500e+01	1.354713e-02
1.135000e+01	1.279845e-02
1.137500e+01	1.214059e-02
1.140000e+01	1.154248e-02
1.142500e+01	1.097524e-02
1.145000e+01	1.043108e-02
1.147500e+01	9.919481e-03
1.150000e+01	9.448339e-03
1.152500e+01	9.018298e-03
1.155000e+01	8.626483e-03
1.157500e+01	8.268843e-03
1.160000e+01	7.940700e-03
1.162500e+01	7.636968e-03
1.165000e+01	7.352907e-03
1.167500e+01	7.085619e-03
1.170000e+01	6.834210e-03
1.172500e+01	6.598247e-03
1.175000e+01	6.376835e-03
1.177500e+01	6.168758e-03
1.180000e+01	5.972774e-03
1.182500e+01	5.787761e-03
1.185000e+01	5.612742e-03
1.187500e+01	5.446868e-03
1.190000e+01	5.289403e-03
1.192500e+01	5.139699e-03
1.195000e+01	4.997183e-03
1.197500e+01	4.861342e-03
1.200000e+01	4.731716e-03
1.202500e+01	4.607891e-03
1.205000e+01	4.489489e-03
1.207500e+01	4.376166e-03
1.210000e+01	4.267608e-03
1.212500e+01	4.163529e-03
1.215000e+01	4.063663e-03
1.217500e+01	3.967767e-03
1.220000e+01	3.875616e-03
1.222500e+01	3.787001e-03
1.225000e+01	3.701730e-03
1.227500e+01	3.619624e-03
1.230000e+01	3.540516e-03
1.232500e+01	3.464251e-03
1.235000e+01	3.390685e-03
1.237500e+01	3.319683e-03
1.240000e+01	3.251118e-03
1.242500e+01	3.184872e-03
1.245000e+01	3.120835e-03
1.247500e+01	3.058904e-03
1.250000e+01	2.998979e-03
1.252500e+01	2.940971e-03
1.255000e+01	2.884793e-03
1.257500e+01	2.830363e-03
1.260000e+01	2.777605e-03
1.262500e+01	2.726447e-03
1.265000e+01	2.676821e-03
1.267500e+01	2.628662e-03
1.270000e+01	2.581910e-03
1.272500e+01	2.536507e-03
1.275000e+01	2.492398e-03
1.277500e+01	2.449532e-03
1.280000e+01	2.407859e-03
1.282500e+01	2.367333e-03
1.285000e+01	2.327910e-03
1.287500e+01	2.289548e-03
1.290000e+01	2.252207e-03
1.292500e+01	2.215848e-03
1.295000e+01	2.180437e-03
1.297500e+01	2.145937e-03
1.300000e+01	2.112317e-03
1.302500e+01	2.079545e-03
1.305000e+01	2.047591e-03
1.307500e+01	2.016426e-03
1.310000e+01	1.986025e-03
1.312500e+01	1.956359e-03
1.315000e+01	1.927405e-03
1.317500e+01	1.899139e-03
1.320000e+01	1.871537e-03
1.322500e+01	1.844579e-03
1.325000e+01	1.818242e-03
1.327500e+01	1.792508e-03
1.330000e+01	1.767357e-03
1.332500e+01	1.742771e-03
1.335000e+01	1.718732e-03
1.337500e+01	1.695222e-03
1.340000e+01	1.672227e-03
1.342500e+01	1.649729e-03
1.345000e+01	1.627715e-03
1.347500e+01	1.606169e-03
1.350000e+01	1.585078e-03
1.352500e+01	1.564429e-03
1.355000e+01	1.544208e-03
1.357500e+01	1.524404e-03
1.360000e+01	1.505004e-03
1.362500e+01	1.485996e-03
1.365000e+01	1.467371e-03
1.367500e+01	1.449117e-03
1.370000e+01	1.431223e-03
1.372500e+01	1.413681e-03
1.375000e+01	1.396480e-03
1.377500e+01	1.379612e-03
1.380000e+01	1.363066e-03
1.382500e+01	1.346836e-03
1.385000e+01	1.330912e-03
1.387500e+01	1.315286e-03
1.390000e+01	1.299951e-03
1.392500e+01	1.284900e-03
1.395000e+01	1.270124e-03
1.397500e+01	1.255617e-03
